# k [h/Mpc], linear P(k) [(Mpc/h)^3]
1.485442661913250446e-05 6.613993014572670859e+01
1.748086679196374490e-05 7.740507199495580437e+01
2.057169297970694975e-05 9.058886473167456188e+01
2.420901418034229955e-05 1.060180146712825575e+02
2.848945724409520486e-05 1.240749137205925194e+02
3.352673380323710429e-05 1.452069292300054713e+02
3.945466106575585907e-05 1.699376441349914160e+02
4.643071672145329898e-05 1.988795194226254068e+02
5.464022239792980983e-05 2.327491872518053810e+02
6.430126680159034872e-05 2.723848623504361512e+02
7.567049932882317464e-05 3.187671259054752113e+02
8.904994805688368404e-05 3.730420486879656892e+02
1.047950432370565424e-04 4.365494334417975892e+02
1.233240594373103934e-04 5.108546482550675591e+02
1.451292271686311275e-04 5.977850006795981699e+02
1.707898091796993141e-04 6.994719667338074487e+02
2.009874887967628770e-04 8.183985499727590422e+02
2.365244791059258045e-04 9.574528510741237142e+02
2.783448340553154035e-04 1.119985896979192830e+03
3.275595276148315438e-04 1.309875823968002123e+03
3.854759672310959211e-04 1.531592583477518019e+03
4.536327256139952501e-04 1.790264925834683481e+03
5.338404135182153818e-04 2.091742606844548391e+03
6.282297793210783786e-04 2.442648979888163012e+03
7.393083131806460657e-04 2.850421059240529758e+03
8.700268594855409873e-04 3.323312743836955178e+03
1.023858007182070146e-03 3.870348742470891011e+03
1.204888340448139177e-03 4.501176778038467091e+03
1.417927000388939131e-03 5.225797326082851214e+03
1.668633441738009114e-03 6.054141210043748288e+03
1.963667778470036800e-03 6.995473104458089438e+03
2.310867712315021506e-03 8.057558565599020767e+03
2.719456744348437358e-03 9.245632017092688329e+03
3.200289200879207190e-03 1.056112394368966670e+04
3.766138582843303172e-03 1.200006112436685362e+04
4.432036898816603919e-03 1.355161169813599372e+04
5.215673996160325766e-03 1.519323777865158263e+04
6.137867498685880760e-03 1.689175734626122357e+04
7.223115834915855640e-03 1.859926208587690417e+04
8.500249048351476988e-03 2.024870273468492087e+04
1.000319467877424512e-02 2.175322360133282928e+04
1.177187906051570081e-02 2.300466561346146409e+04
1.385328798103416595e-02 2.387439847975501834e+04
1.630271487660510735e-02 2.422122178262553643e+04
1.918522972392875878e-02 2.390974442010511120e+04
2.257740764933055880e-02 2.284645580172609698e+04
2.656936317672958098e-02 2.103678851527866573e+04
3.126714415496167909e-02 1.864705122316077541e+04
3.679554896006698161e-02 1.602470117472150196e+04
4.330144181261402075e-02 1.361523066201209440e+04
5.095765428275276371e-02 1.175306703979527629e+04
5.996757662799397093e-02 1.040638533195613672e+04
7.057056093438493494e-02 9.103911334198963232e+03
8.304827959762661749e-02 7.410305655437449786e+03
9.773220805965056324e-02 5.706545795483146321e+03
1.150124305824609394e-01 4.648408332322781462e+03
1.353480029880405056e-01 3.893598101924646926e+03
1.592791476545340479e-01 3.034044093417403928e+03
1.874416047335147328e-01 2.463171402191287143e+03
2.205835208339964049e-01 1.975184876228448047e+03
2.595853238276416008e-01 1.601866691269829516e+03
3.054831117570783738e-01 1.302094580900487699e+03
3.594961771827664410e-01 1.070339885566059820e+03
4.230593981633689049e-01 8.888981528763504230e+02
4.978613563486097848e-01 7.462355501646416087e+02
5.858891948065443334e-01 6.326977968396593042e+02
6.894814072508576031e-01 5.404287510758221060e+02
8.113899610345124414e-01 4.634383794635699587e+02
9.548534042311824788e-01 3.970918802395012221e+02
1.123682898922503171e+00 3.381657383240372496e+02
1.322363466198807957e+00 2.847324055799419966e+02
1.556173132486132316e+00 2.360026032914846041e+02
1.831323142367893730e+00 1.920421185019535244e+02
2.155122962709358880e+00 1.533317464133104124e+02
2.536174461483494902e+00 1.202944955981069910e+02
2.984600419734174448e+00 9.296670627690774324e+01
3.512313447185691384e+00 7.095553831437460701e+01
4.133332445346295181e+00 5.358316256125231547e+01
4.864155025070893146e+00 4.008699099527123622e+01
5.724195772000189919e+00 2.973676131146177681e+01
6.736302002567709835e+00 2.188183820588071882e+01
7.927360711833484785e+00 1.597418885873313066e+01
9.329012836949267751e+00 1.157269510088665321e+01
1.097849381094143872e+01 8.321718327355016598e+00
1.291962273644954884e+01 5.940474031145850375e+00
1.520396645720476769e+01 4.210648439264023324e+00
1.789220945125937945e+01 2.964031700136090297e+00
2.105576593771249350e+01 2.072656325582751702e+00
2.477867702317378829e+01 1.441288412894954796e+00
2.915984328639733647e+01 1.001866580775964355e+00
3.431565211056384612e+01 6.965283032814939546e-01
4.038306955931283682e+01 4.843192757947776816e-01
4.752327893341332299e+01 3.368085212233319914e-01
5.592596266774307878e+01 2.342539600105841002e-01
6.581434131883359839e+01 1.629437060718678387e-01
7.745110350564000612e+01 1.133520137667796968e-01
9.114538433471722101e+01 7.885988061856347153e-02
1.072609776943769617e+02 5.486715471188299831e-02
1.262260005806066516e+02 3.817617699390943309e-02
1.485442661913250220e+02 2.656380769893522051e-02
