# k [h/Mpc], linear P(k) [(Mpc/h)^3]
1.485442661913250446e-05 6.613993137875441164e+01
1.748086679196374490e-05 7.740507249062247297e+01
2.057169297970694975e-05 9.058886372934688325e+01
2.420901418034229955e-05 1.060180139090479940e+02
2.848945724409520486e-05 1.240749101944093553e+02
3.352673380323710429e-05 1.452069302800835260e+02
3.945466106575585907e-05 1.699376388291224771e+02
4.643071672145329898e-05 1.988795238242342691e+02
5.464022239792980983e-05 2.327491772437805082e+02
6.430126680159034872e-05 2.723848702631453307e+02
7.567049932882317464e-05 3.187671339299736246e+02
8.904994805688368404e-05 3.730420607295041009e+02
1.047950432370565424e-04 4.365494265353732430e+02
1.233240594373103934e-04 5.108546685796634392e+02
1.451292271686311275e-04 5.977849934399163203e+02
1.707898091796993141e-04 6.994719468043829238e+02
2.009874887967628770e-04 8.183985278361299152e+02
2.365244791059258045e-04 9.574528739170597191e+02
2.783448340553154035e-04 1.119985845719073495e+03
3.275595276148315438e-04 1.309875788906199205e+03
3.854759672310959211e-04 1.531592541047209579e+03
4.536327256139952501e-04 1.790264876078168982e+03
5.338404135182153818e-04 2.091742395875031434e+03
6.282297793210783786e-04 2.442648843570249028e+03
7.393083131806460657e-04 2.850420944533937927e+03
8.700268594855409873e-04 3.323312587549130512e+03
1.023858007182070146e-03 3.870349092470646156e+03
1.204888340448139177e-03 4.501178421544620505e+03
1.417927000388939131e-03 5.225801398529490143e+03
1.668633441738009114e-03 6.054151225092227833e+03
1.963667778470036800e-03 6.995494456778777931e+03
2.310867712315021506e-03 8.057603571844654653e+03
2.719456744348437358e-03 9.245723313272552332e+03
3.200289200879207190e-03 1.056130351600684116e+04
3.766138582843303172e-03 1.200040926246119307e+04
4.432036898816603919e-03 1.355227188048793505e+04
5.215673996160325766e-03 1.519447051555124199e+04
6.137867498685880760e-03 1.689402042382676518e+04
7.223115834915855640e-03 1.860334544757246113e+04
8.500249048351476988e-03 2.025593980118367836e+04
1.000319467877424512e-02 2.176580057396573466e+04
1.177187906051570081e-02 2.302597871987124017e+04
1.385328798103416595e-02 2.390956682894215919e+04
1.630271487660510735e-02 2.427764881130534195e+04
1.918522972392875878e-02 2.399755245858098351e+04
2.257740764933055880e-02 2.297758333239978674e+04
2.656936317672958098e-02 2.122037857873854955e+04
3.126714415496167909e-02 1.888091154044119321e+04
3.679554896006698161e-02 1.629082420208381336e+04
4.330144181261402075e-02 1.389048548894017404e+04
5.095765428275276371e-02 1.203641134300502927e+04
5.996757662799397093e-02 1.073193722963501023e+04
7.057056093438493494e-02 9.469321070022728236e+03
8.304827959762661749e-02 7.655335250913000891e+03
9.773220805965056324e-02 5.674035908232764996e+03
1.150124305824609394e-01 4.525963916406535645e+03
1.353480029880405056e-01 3.822879012383495137e+03
1.592791476545340479e-01 2.726176278257700687e+03
1.874416047335147328e-01 2.141225221838852576e+03
2.205835208339964049e-01 1.574174518949491585e+03
2.595853238276416008e-01 1.192078134723929907e+03
3.054831117570783738e-01 8.517539459192256572e+02
3.594961771827664410e-01 6.194208691039482346e+02
4.230593981633689049e-01 4.458754258767338570e+02
4.978613563486097848e-01 3.173820742752443493e+02
5.858891948065443334e-01 2.241576831603009339e+02
6.894814072508576031e-01 1.569728041822016280e+02
8.113899610345124414e-01 1.091853182103375417e+02
9.548534042311824788e-01 7.545944895734008639e+01
1.123682898922503171e+00 5.184635920378859453e+01
1.322363466198807957e+00 3.542860537092653317e+01
1.556173132486132316e+00 2.408754471666912877e+01
1.831323142367893730e+00 1.629998104059598418e+01
2.155122962709358880e+00 1.098217830862163602e+01
2.536174461483494902e+00 7.369224762757422553e+00
2.984600419734174448e+00 4.926174579376087159e+00
3.512313447185691384e+00 3.281402033382407879e+00
4.133332445346295181e+00 2.178574893456510342e+00
4.864155025070893146e+00 1.441916376955266754e+00
5.724195772000189919e+00 9.515805012640735638e-01
6.736302002567709835e+00 6.262782099638276589e-01
7.927360711833484785e+00 4.111260798095005553e-01
9.329012836949267751e+00 2.692367792899894585e-01
1.097849381094143872e+01 1.759152951499083350e-01
1.291962273644954884e+01 1.146933931588081240e-01
1.520396645720476769e+01 7.462554945148777708e-02
1.789220945125937945e+01 4.846116686656069816e-02
2.105576593771249350e+01 3.141233720152162429e-02
2.477867702317378829e+01 2.033031044601363302e-02
2.915984328639733647e+01 1.315657796271100383e-02
3.431565211056384612e+01 8.514534471319569128e-03
4.038306955931283682e+01 5.510567553947211088e-03
4.752327893341332299e+01 3.566544430042513369e-03
5.592596266774307878e+01 2.308411655550717673e-03
6.581434131883359839e+01 1.494141117434731256e-03
7.745110350564000612e+01 9.671217313329818436e-04
9.114538433471722101e+01 6.260085424429945485e-04
1.072609776943769617e+02 4.052167573132806804e-04
1.262260005806066516e+02 2.623016247834195481e-04
1.485442661913250220e+02 1.697928656950722578e-04
